X,Y,Pressure,TiltX,TiltY,Time,Color
658.169303614736,602.663587019286,0.397940039634705,2601.0,-1382.0,1.6470707,0
657.326712091466,602.242291257651,0.404531925916672,2601.0,-1382.0,1.6470707,0
656.958078300035,602.084305347038,0.39476615190506,2601.0,-1382.0,1.6627799,0
654.746275551449,600.241136389883,0.356679648160934,2601.0,-1382.0,1.6782655,0
653.640374177157,598.397967432729,0.412344545125961,2601.0,-1382.0,1.6940529,0
653.061092504908,596.344150594757,0.428946375846863,2601.0,-1382.0,1.7187447,0
652.429148862455,593.447742233514,0.439444571733475,2601.0,-1382.0,1.734579,0
651.270585517958,587.54960157062,0.471915781497955,2601.0,-1382.0,1.7500418,0
650.270008084074,582.757362282019,0.507316708564758,2601.0,-1382.0,1.7656694,0
649.74338838203,580.124263771798,0.525871694087982,2601.0,-1382.0,1.7656694,0
649.480078531008,578.755052546483,0.535149157047272,2601.0,-1382.0,1.7813457,0
648.637487007738,574.54209493013,0.56029599905014,2601.0,-1382.0,1.7813457,0
648.268853216307,573.120221734611,0.56810861825943,2601.0,-1382.0,1.7969122,0
646.215036378335,566.06351772722,0.601800560951233,2601.0,-1382.0,1.8125784,0
644.740501212611,560.060053123917,0.622552812099457,2601.0,-1382.0,1.8125784,0
644.37186742118,558.480194017785,0.626459121704102,2601.0,-1382.0,1.8281691,0
643.265966046888,553.582630788775,0.636713206768036,2601.0,-1382.0,1.8281691,0
642.897332255457,551.792123801825,0.639642953872681,2601.0,-1382.0,1.8438974,0
641.949416791777,545.999307079339,0.64769971370697,2611.0,-1359.0,1.8594061,0
640.632867536667,537.41540593602,0.65551233291626,2611.0,-1359.0,1.8594061,0
640.369557685645,535.203603187435,0.65551233291626,2611.0,-1359.0,1.8750404,0
639.526966162374,528.410209031066,0.661371767520905,2621.0,-1335.0,1.8906629,0
638.052430996651,514.981406628941,0.670161008834839,2650.0,-1261.0,1.9063526,0
637.157177503176,506.818801247257,0.675043880939484,2650.0,-1261.0,1.9219097,0
636.525233860723,500.341378912115,0.681879937648773,2692.0,-1142.0,1.9375925,0
635.629980367248,493.705970666359,0.688715934753418,2726.0,-1033.0,1.9532202,0
634.734726873773,485.174731493244,0.690669119358063,2740.0,-981.0,1.9689231,0
633.892135350502,477.275435962582,0.694819569587708,2755.0,-926.0,1.9844069,0
632.996881857027,469.955422104169,0.698725879192352,2790.0,-768.0,2.0001698,0
631.996304423144,462.68807021596,0.702876329421997,2814.0,-636.0,2.0001698,0
631.785656542326,461.529506871463,0.705806076526642,2819.0,-606.0,2.0157338,0
631.101050929669,457.632521076337,0.708247482776642,2983.0,-585.0,2.0157338,0
630.837741078646,456.210647880818,0.710200667381287,2987.0,-556.0,2.0313652,0
629.784501674558,451.10243677099,0.712153792381287,2991.0,-527.0,2.0313652,0
629.363205912923,449.048619933018,0.712153792381287,2995.0,-488.0,2.0470053,0
628.415290449244,443.519113061554,0.712153792381287,3010.0,-336.0,2.0625096,0
627.625360896177,436.515071024368,0.712153792381287,3021.0,-130.0,2.0781352,0
627.046079223929,430.353620510452,0.712153792381287,3022.0,87.0,2.0781352,0
626.94075528352,429.089733225546,0.712153792381287,3020.0,145.0,2.0937757,0
626.677445432498,424.718789698579,0.712153792381287,3009.0,345.0,2.1093837,0
626.519459521885,421.769719367132,0.712153792381287,2988.0,547.0,2.1250053,0
626.150825730454,419.189282827116,0.712153792381287,2973.0,660.0,2.1407674,0
625.308234207183,412.079916849521,0.712153792381287,2952.0,781.0,2.1407674,0
625.202910266774,411.026677445432,0.712153792381287,2946.0,810.0,2.1563738,0
624.834276475344,407.972283173577,0.714106976985931,2941.0,838.0,2.1719805,0
624.254994803095,403.917311467837,0.714106976985931,2929.0,896.0,2.1875379,0
623.886361011664,401.968818570274,0.714106976985931,2929.0,896.0,2.2031318,0
622.306501905532,395.017438503291,0.714106976985931,2909.0,979.0,2.2187768,0
621.56923432267,392.226354082458,0.716060101985931,2902.0,1007.0,2.2343708,0
620.726642799399,389.803903453055,0.718257427215576,2895.0,1034.0,2.2343708,0
620.515994918582,389.27728375101,0.718257427215576,2888.0,1063.0,2.2500673,0
620.042037186742,387.802748585287,0.720210552215576,2888.0,1063.0,2.2500673,0
619.936713246333,387.276128883243,0.720210552215576,2880.0,1090.0,2.2657466,0
619.568079454902,386.064903568541,0.720210552215576,2880.0,1090.0,2.281352,0
619.199445663472,384.748354313431,0.720210552215576,2873.0,1116.0,2.281352,0
619.146783693267,384.432382492205,0.720210552215576,2873.0,1116.0,2.2968613,0
618.988797782654,383.695114909343,0.720210552215576,2865.0,1143.0,2.3124857,0
618.830811872041,382.852523386072,0.720210552215576,2865.0,1143.0,2.3124857,0
618.778149901836,382.641875505255,0.720210552215576,2865.0,1143.0,2.3281091,0
618.725487931632,381.799283981984,0.718257427215576,2857.0,1169.0,2.3437354,0
618.672825961427,380.956692458713,0.718257427215576,2849.0,1196.0,2.3437354,0
618.725487931632,380.640720637487,0.718257427215576,2849.0,1196.0,2.3593563,0
618.830811872041,379.903453054625,0.718257427215576,2840.0,1223.0,2.3593563,0
618.936135812449,379.640143203603,0.716304242610931,2840.0,1223.0,2.3750507,0
619.146783693267,378.797551680333,0.716304242610931,2831.0,1250.0,2.3906058,0
619.410093544289,377.954960157062,0.716304242610931,2831.0,1250.0,2.4063828,0
620.042037186742,377.165030603996,0.712397933006287,2822.0,1277.0,2.4218497,0
620.989952650422,376.217115140316,0.712397933006287,2813.0,1302.0,2.4374741,0
622.201177965123,375.269199676637,0.710444808006287,2813.0,1302.0,2.45319,0
624.044346922277,374.11063633214,0.708491623401642,2804.0,1328.0,2.4688312,0
626.256149670863,373.110058898256,0.708491623401642,2785.0,1379.0,2.4688312,0
626.888093313316,372.899411017439,0.708491623401642,2785.0,1379.0,2.4843441,0
628.941910151288,372.32012934519,0.708491623401642,2775.0,1405.0,2.5000714,0
631.732994572121,371.477537821919,0.706050217151642,2764.0,1431.0,2.5000714,0
632.417600184779,371.319551911306,0.706050217151642,2764.0,1431.0,2.5157277,0
634.734726873773,370.950918119875,0.704097032546997,2754.0,1456.0,2.5324774,0
637.999769026446,370.424298417831,0.704097032546997,2754.0,1456.0,2.5530577,0
643.423951957501,369.792354775378,0.704097032546997,2754.0,1456.0,2.5686873,0
647.373599722832,369.739692805174,0.702143907546997,2754.0,1456.0,2.5686873,0
648.42683912692,369.792354775378,0.702143907546997,2754.0,1456.0,2.5843102,0
651.375909458367,369.950340685991,0.702143907546997,2754.0,1456.0,2.5843102,0
652.271162951842,370.003002656196,0.702143907546997,2754.0,1456.0,2.5999439,0
656.694768449013,369.739692805174,0.700190722942352,2754.0,1456.0,2.6156613,0
660.223120452708,369.055087192516,0.700190722942352,2754.0,1456.0,2.6312739,0
663.804134426608,368.212495669246,0.700190722942352,2754.0,1456.0,2.6312739,0
664.594063979674,367.896523848019,0.700190722942352,2754.0,1456.0,2.6468135,0
667.121838549486,367.159256265158,0.700190722942352,2754.0,1456.0,2.6637677,0
670.439542672364,366.264002771683,0.700190722942352,2754.0,1456.0,2.6794849,0
673.651922854833,365.474073218616,0.700190722942352,2754.0,1456.0,2.6794849,0
674.389190437695,365.210763367594,0.700190722942352,2754.0,1456.0,2.6950662,0
676.390345305462,364.578819725141,0.700190722942352,2754.0,1456.0,2.7038261,0
677.022288947915,364.368171844324,0.700190722942352,2754.0,1456.0,2.7194694,0
682.077838087539,363.209608499827,0.700190722942352,2754.0,1456.0,2.7350858,0
682.867767640605,363.051622589214,0.700190722942352,2754.0,1456.0,2.750837,0
687.765330869615,362.367016976556,0.700190722942352,2754.0,1456.0,2.7664066,0
690.45109135004,361.945721214921,0.700190722942352,2754.0,1456.0,2.7664066,0
691.135696962698,361.945721214921,0.700190722942352,2754.0,1456.0,2.7820684,0
692.926203949648,361.735073334103,0.700190722942352,2754.0,1456.0,2.7975757,0
695.032682757824,361.524425453286,0.702143907546997,2754.0,1456.0,2.7975757,0
695.559302459868,361.419101512877,0.702143907546997,2754.0,1456.0,2.8132097,0
696.875851714979,361.208453632059,0.702143907546997,2754.0,1456.0,2.8132097,0
697.191823536205,361.10312969165,0.702143907546997,2754.0,1456.0,2.8230446,0
697.191823536205,361.10312969165,0.702143907546997,2754.0,1456.0,2.8387009,0
698.034415059476,360.997805751241,0.702143907546997,2754.0,1456.0,2.8534589,0
698.877006582746,360.892481810833,0.702143907546997,2754.0,1456.0,2.8534589,0
699.298302344382,360.997805751241,0.702143907546997,2754.0,1456.0,2.8690933,0
699.298302344382,360.997805751241,0.704097032546997,2754.0,1456.0,2.8690933,0
699.298302344382,360.997805751241,0.704097032546997,2754.0,1456.0,2.8847176,0
699.666936135812,361.050467721446,0.704097032546997,2754.0,1456.0,2.8847176,0
700.088231897448,361.208453632059,0.704097032546997,2754.0,1456.0,2.9004955,0
700.509527659083,361.471763483081,0.706050217151642,2754.0,1456.0,2.9004955,0
700.509527659083,361.471763483081,0.706050217151642,2754.0,1456.0,2.9160848,0
701.141471301536,361.945721214921,0.706050217151642,2754.0,1456.0,2.9316961,0
701.457443122762,362.367016976556,0.708003342151642,2754.0,1456.0,2.9472068,0
702.14204873542,363.683566231666,0.708003342151642,2754.0,1456.0,2.9472068,0
702.247372675829,364.104861993302,0.708003342151642,2754.0,1456.0,2.9628353,0
702.352696616237,365.052777456981,0.709956526756287,2754.0,1456.0,2.9628353,0
702.458020556646,365.526735188821,0.709956526756287,2754.0,1456.0,2.9785237,0
702.668668437464,366.527312622705,0.711909651756287,2754.0,1456.0,2.994178,0
702.879316318282,368.001847788428,0.711909651756287,2754.0,1456.0,2.994178,0
702.931978288486,368.475805520268,0.711909651756287,2754.0,1456.0,3.0097628,0
702.98464025869,369.371059013743,0.713862836360931,2754.0,1456.0,3.0253673,0
703.037302228895,370.845594179466,0.713862836360931,2754.0,1456.0,3.0409521,0
703.037302228895,372.636101166416,0.715815961360931,2754.0,1456.0,3.0566423,0
702.879316318282,374.163298302344,0.717769145965576,2754.0,1456.0,3.0566423,0
702.773992377873,374.689918004389,0.719722270965576,2754.0,1456.0,3.0721997,0
702.563344497055,376.269777110521,0.719722270965576,2754.0,1456.0,3.0721997,0
702.458020556646,376.849058782769,0.721675455570221,2754.0,1456.0,3.0878381,0
702.036724795011,378.534241829311,0.721675455570221,2754.0,1456.0,3.0878381,0
701.878738884398,379.060861531355,0.721675455570221,2754.0,1456.0,3.1034424,0
701.088809331332,381.904607922393,0.723628580570221,2754.0,1456.0,3.1034424,0
700.930823420718,382.483889594641,0.723628580570221,2754.0,1456.0,3.11907,0
700.667513569696,384.063748700774,0.723628580570221,2754.0,1456.0,3.1347325,0
700.246217808061,386.380875389768,0.723628580570221,2754.0,1456.0,3.1503911,0
700.035569927243,388.276706317127,0.723628580570221,2706.0,1428.0,3.1660164,0
699.87758401663,389.540593602033,0.723628580570221,2706.0,1428.0,3.181674,0
699.719598106017,390.804480886938,0.723628580570221,2706.0,1428.0,3.181674,0
699.772260076221,391.173114678369,0.723628580570221,2706.0,1428.0,3.1971852,0
699.772260076221,391.5417484698,0.723628580570221,2706.0,1428.0,3.2128074,0
699.719598106017,392.85829772491,0.725581765174866,2706.0,1428.0,3.2285209,0
699.666936135812,393.648227277977,0.725581765174866,2658.0,1399.0,3.2440608,0
699.666936135812,394.490818801247,0.725581765174866,2658.0,1399.0,3.2596823,0
699.614274165608,395.860030026562,0.725581765174866,2658.0,1399.0,3.2596823,0
699.561612195404,396.333987758402,0.725581765174866,2658.0,1399.0,3.275303,0
699.298302344382,398.493128536783,0.725581765174866,2658.0,1399.0,3.2909265,0
699.140316433768,400.178311583324,0.725581765174866,2658.0,1399.0,3.2909265,0
699.087654463564,400.704931285368,0.725581765174866,2658.0,1399.0,3.3066893,0
698.877006582746,402.442776302113,0.725581765174866,2658.0,1399.0,3.3066893,0
698.877006582746,403.074719944566,0.725581765174866,2658.0,1399.0,3.3221811,0
698.719020672133,405.707818454787,0.725581765174866,2611.0,1372.0,3.3221811,0
698.719020672133,406.287100127035,0.728511452674866,2611.0,1372.0,3.3378047,0
698.771682642337,407.919621203372,0.734615087509155,2611.0,1372.0,3.3378047,0
698.719020672133,408.446240905416,0.734615087509155,2621.0,1349.0,3.3534617,0
698.719020672133,408.97286060746,0.731685340404511,2621.0,1349.0,3.3690447,0
698.719020672133,410.658043654002,0.727046608924866,2621.0,1349.0,3.3690447,0
698.719020672133,411.079339415637,0.727046608924866,2621.0,1349.0,3.3846648,0
698.719020672133,412.606536551565,0.729732215404511,2621.0,1349.0,3.4002882,0
698.56103476152,415.660930823421,0.733638525009155,2630.0,1325.0,3.4159148,0
698.350386880702,418.241367363437,0.728023171424866,2630.0,1325.0,3.4315423,0
698.245062940293,419.34726873773,0.728023171424866,2630.0,1325.0,3.4315423,0
698.192400970089,419.663240558956,0.728023171424866,2630.0,1325.0,3.4471933,0
698.034415059476,420.716479963044,0.729976356029511,2630.0,1325.0,3.4628975,0
697.929091119067,422.085691188359,0.7385213971138,2630.0,1325.0,3.478482,0
697.876429148862,422.401663009585,0.74633401632309,2630.0,1325.0,3.4940309,0
697.823767178658,422.980944681834,0.752193510532379,2630.0,1325.0,3.4940309,0
697.823767178658,422.980944681834,0.752193510532379,2630.0,1325.0,3.5097444,0
697.823767178658,423.507564383878,0.756099820137024,2630.0,1325.0,3.5253687,0
697.823767178658,424.139508026331,0.760250270366669,2640.0,1301.0,3.5410079,0
697.823767178658,424.666127728375,0.762203395366669,2640.0,1301.0,3.5566619,0
697.823767178658,424.982099549602,0.764156579971313,2640.0,1301.0,3.5840064,0
697.876429148862,425.298071370828,0.766109704971313,2640.0,1301.0,3.5840064,0
697.876429148862,425.298071370828,0.766109704971313,2640.0,1301.0,3.5996345,0
697.876429148862,425.298071370828,0.768062889575958,2640.0,1301.0,3.6152763,0
697.876429148862,425.298071370828,0.768062889575958,2640.0,1301.0,3.6308799,0
697.876429148862,425.298071370828,0.770016014575958,2640.0,1301.0,3.6465034,0
697.876429148862,425.298071370828,0.770016014575958,2640.0,1301.0,3.6465034,0
697.718443238249,425.456057281441,0.766109704971313,2640.0,1301.0,3.6777527,0
697.086499595796,425.403395311237,0.752925932407379,2640.0,1301.0,3.6777527,0
696.875851714979,425.350733341032,0.743648409843445,2640.0,1301.0,3.6933697,0
695.401316549255,424.350155907149,0.439688712358475,2640.0,1301.0,3.6933697,0
697.033837625592,427.82584594064,0.146715492010117,3093.0,495.0,4.168877,0
697.033837625592,427.82584594064,0.154283970594406,3093.0,495.0,4.1845085,0
697.033837625592,427.82584594064,0.268787682056427,3093.0,495.0,4.2001568,0
697.033837625592,427.82584594064,0.315663397312164,3093.0,495.0,4.2157834,0
696.875851714979,427.193902298187,0.335683226585388,3093.0,495.0,4.2313557,0
696.875851714979,427.193902298187,0.372549027204514,3093.0,495.0,4.2469764,0
696.928513685183,426.983254417369,0.421622037887573,3093.0,495.0,4.2626663,0
697.455133387227,427.035916387574,0.489005863666534,3093.0,495.0,4.2782816,0
698.56103476152,427.720522000231,0.515373468399048,3093.0,495.0,4.2939642,0
699.87758401663,428.66843746391,0.538323044776917,3093.0,495.0,4.3095893,0
701.404781152558,430.406282480656,0.555168986320496,3093.0,495.0,4.3095893,0
701.826076914193,430.9329021827,0.55883115530014,3093.0,495.0,4.3250982,0
703.089964199099,432.354775378219,0.56835275888443,3093.0,495.0,4.3250982,0
703.511259960734,432.828733110059,0.571282505989075,3093.0,495.0,4.3407221,0
704.669823305231,434.092620394965,0.579827547073364,3093.0,495.0,4.3407221,0
705.038457096662,434.566578126804,0.582513153553009,3093.0,495.0,4.3563453,0
706.039034530546,435.567155560688,0.588128507137299,3093.0,495.0,4.3563453,0
706.355006351773,435.883127381915,0.588128507137299,3093.0,495.0,4.3719688,0
707.250259845248,436.883704815799,0.593011379241943,3093.0,495.0,4.3719688,0
707.618893636679,437.252338607229,0.593011379241943,3093.0,495.0,4.3875933,0
708.566809100358,438.305578011318,0.594964504241943,3093.0,495.0,4.4032194,0
710.041344266082,439.674789236632,0.597161829471588,3093.0,495.0,4.4032194,0
710.462640027717,440.043423028063,0.597161829471588,3093.0,495.0,4.4189599,0
711.621203372214,441.20198637256,0.599114954471588,3093.0,495.0,4.4189599,0
712.042499133849,441.570620163991,0.599114954471588,3093.0,495.0,4.434508,0
712.990414597529,442.623859568079,0.601068139076233,3093.0,495.0,4.4500756,0
714.20163991223,443.993070793394,0.603021264076233,3099.0,433.0,4.4500756,0
714.464949763252,444.309042614621,0.603021264076233,3099.0,433.0,4.4657038,0
715.096893405705,445.098972167687,0.604974448680878,3108.0,327.0,4.4657038,0
715.360203256727,445.204296108096,0.604974448680878,3111.0,290.0,4.4810246,0
715.834160988567,445.783577780344,0.606927573680878,3116.0,191.0,4.4968451,0
716.676752511837,446.520845363206,0.610833883285522,3118.0,130.0,4.5123343,0
716.782076452246,446.626169303615,0.610833883285522,3118.0,100.0,4.5280033,0
717.30869615429,447.205450975863,0.614740192890167,3119.0,67.0,4.5435803,0
717.414020094699,447.310774916272,0.614740192890167,3119.0,-27.0,4.559291,0
717.572006005312,447.468760826885,0.616693377494812,3117.0,-156.0,4.559291,0
717.572006005312,447.468760826885,0.616693377494812,3116.0,-187.0,4.574835,0
717.572006005312,447.468760826885,0.614740192890167,3061.0,-245.0,4.6063044,0
717.677329945721,447.626746737499,0.614740192890167,3006.0,-302.0,4.6224946,0
717.677329945721,447.626746737499,0.601800560951233,2836.0,-450.0,4.6537379,0
717.677329945721,447.626746737499,0.594476222991943,2833.0,-479.0,4.6537379,0
717.677329945721,447.626746737499,0.554192423820496,2723.0,-512.0,4.6693721,0
717.677329945721,447.626746737499,0.538567185401917,2723.0,-512.0,4.6693721,0
717.256034184086,446.731493244024,0.368398576974869,2716.0,-565.0,4.6849943,0
717.098048273473,446.415521422797,0.207263290882111,2716.0,-565.0,4.6849943,0
693.768795472918,428.826423374524,0.111802853643894,2771.0,1405.0,5.0771593,0
693.768795472918,428.826423374524,0.117662318050861,2771.0,1405.0,5.0771593,0
693.821457443123,427.667860030027,0.132310971617699,2816.0,1285.0,5.092766,0
693.66347153251,427.088578357778,0.172838941216469,2942.0,818.0,5.092766,0
693.66347153251,427.088578357778,0.186266884207726,2960.0,720.0,5.1083952,0
693.452823651692,426.772606536552,0.226062402129173,2991.0,498.0,5.1239985,0
693.031527890057,426.509296685529,0.279774159193039,3009.0,300.0,5.1396258,0
692.504908188012,426.614620625938,0.335194945335388,3016.0,186.0,5.1552503,0
692.346922277399,426.719944566347,0.345204859972,3017.0,157.0,5.173753,0
691.662316664742,427.141240327982,0.362294942140579,3018.0,127.0,5.189463,0
691.241020903107,427.457212149209,0.378896772861481,3018.0,127.0,5.2051132,0
690.135119528814,428.247141702275,0.419913023710251,3018.0,127.0,5.2207709,0
689.081880124726,429.353043076568,0.456046372652054,3018.0,127.0,5.2450516,0
688.397274512068,430.300958540247,0.475333780050278,3018.0,127.0,5.2656329,0
687.712668899411,431.617507795357,0.491935610771179,3018.0,127.0,5.2812851,0
686.922739346345,433.19736690149,0.499259948730469,3018.0,127.0,5.2968883,0
686.712091465527,433.618662663125,0.501213073730469,3018.0,127.0,5.3125134,0
686.659429495323,433.776648573738,0.501213073730469,3018.0,127.0,5.3125134,0
686.554105554914,433.934634484352,0.503166258335114,3018.0,127.0,5.3281327,0
686.080147823074,434.619240097009,0.500480651855469,3018.0,127.0,5.3437671,0
685.764176001848,435.093197828849,0.500480651855469,3018.0,127.0,5.3594344,0
685.290218270008,435.777803441506,0.500480651855469,3018.0,127.0,5.3594344,0
685.132232359395,435.935789352119,0.500480651855469,3018.0,127.0,5.3763897,0
684.763598567964,436.357085113754,0.504386961460114,3018.0,127.0,5.3763897,0
684.605612657351,436.567732994572,0.504386961460114,3018.0,127.0,5.3921067,0
684.078992955307,437.199676637025,0.508293271064758,3018.0,127.0,5.3921067,0
683.815683104285,437.357662547638,0.508293271064758,3018.0,127.0,5.4076529,0
683.183739461832,437.884282249682,0.512932002544403,3018.0,127.0,5.4234011,0
682.288485968357,438.726873772953,0.517814934253693,3018.0,127.0,5.4234011,0
682.077838087539,438.937521653771,0.517814934253693,3018.0,127.0,5.4389532,0
681.551218385495,439.622127266428,0.519768059253693,3018.0,98.0,5.4389532,0
681.340570504677,439.88543711745,0.519768059253693,3018.0,98.0,5.4546345,0
